           T(s)              1              2              3              4              5              6              7
          0.000  0.0000000E+00  0.0000000E+00  0.0000000E+00  0.0000000E+00  0.0000000E+00  0.0000000E+00  0.0000000E+00
        300.000  0.7866536E-07  0.2420645E-06  0.8503924E-09  0.1610906E-06  0.3108872E-06  0.5169130E-06  0.2703467E-06
        600.000  0.2498568E-06  0.7671149E-06  0.2736644E-08  0.5133804E-06  0.9825870E-06  0.1631508E-05  0.8576249E-06
        900.000  0.4914109E-06  0.1503962E-05  0.5481877E-08  0.1014432E-05  0.1919190E-05  0.3180548E-05  0.1683849E-05
       1200.000  0.7943464E-06  0.2421483E-05  0.9064664E-08  0.1649228E-05  0.3075631E-05  0.5084916E-05  0.2716028E-05
       1500.000  0.1153238E-05  0.3499141E-05  0.1351341E-07  0.2410281E-05  0.4420112E-05  0.7287430E-05  0.3933159E-05
       1800.000  0.1564345E-05  0.4721323E-05  0.1888563E-07  0.3293677E-05  0.5927027E-05  0.9741283E-05  0.5319859E-05
       2100.000  0.2024898E-05  0.6075205E-05  0.2526018E-07  0.4297517E-05  0.7574381E-05  0.1240591E-04  0.6863939E-05
       2400.000  0.2532752E-05  0.7549744E-05  0.3273372E-07  0.5421131E-05  0.9342605E-05  0.1524511E-04  0.8555250E-05
       2700.000  0.3086194E-05  0.9135121E-05  0.4141903E-07  0.6664612E-05  0.1121395E-04  0.1822618E-04  0.1038504E-04
       3000.000  0.3683825E-05  0.1082242E-04  0.5144414E-07  0.8028514E-05  0.1317213E-04  0.2131933E-04  0.1234555E-04
       3300.000  0.4324479E-05  0.1260340E-04  0.6295198E-07  0.9513646E-05  0.1520216E-04  0.2449741E-04  0.1442980E-04
       3600.000  0.5007173E-05  0.1447039E-04  0.7610035E-07  0.1112092E-04  0.1729016E-04  0.2773575E-04  0.1663138E-04
       3900.000  0.5731068E-05  0.1641618E-04  0.9106196E-07  0.1285124E-04  0.1942332E-04  0.3101197E-04  0.1894436E-04
       4200.000  0.6495437E-05  0.1843395E-04  0.1080247E-06  0.1470540E-04  0.2158985E-04  0.3430585E-04  0.2136317E-04
       4500.000  0.7299648E-05  0.2051721E-04  0.1271917E-06  0.1668403E-04  0.2377888E-04  0.3759931E-04  0.2388259E-04
       4800.000  0.8143145E-05  0.2265980E-04  0.1487819E-06  0.1878756E-04  0.2598045E-04  0.4087621E-04  0.2649765E-04
       5100.000  0.9025434E-05  0.2485586E-04  0.1730299E-06  0.2101614E-04  0.2818548E-04  0.4412230E-04  0.2920361E-04
       5400.000  0.9946071E-05  0.2709976E-04  0.2001866E-06  0.2336962E-04  0.3038573E-04  0.4732510E-04  0.3199595E-04
       5700.000  0.1090466E-04  0.2938616E-04  0.2305192E-06  0.2584757E-04  0.3257375E-04  0.5047381E-04  0.3487030E-04
       6000.000  0.1190082E-04  0.3170993E-04  0.2643112E-06  0.2844923E-04  0.3474285E-04  0.5355915E-04  0.3782249E-04
       6300.000  0.1293424E-04  0.3406618E-04  0.3018629E-06  0.3117349E-04  0.3688706E-04  0.5657332E-04  0.4084845E-04
       6600.000  0.1400459E-04  0.3645025E-04  0.3434912E-06  0.3401893E-04  0.3900110E-04  0.5950982E-04  0.4394429E-04
       6900.000  0.1511158E-04  0.3885768E-04  0.3895296E-06  0.3698378E-04  0.4108036E-04  0.6236337E-04  0.4710622E-04
       7200.000  0.1625493E-04  0.4128424E-04  0.4403284E-06  0.4006598E-04  0.4312079E-04  0.6512981E-04  0.5033055E-04
       7500.000  0.1743437E-04  0.4372589E-04  0.4962542E-06  0.4326313E-04  0.4511896E-04  0.6780599E-04  0.5361373E-04
       7800.000  0.1864966E-04  0.4617877E-04  0.5576900E-06  0.4657253E-04  0.4707192E-04  0.7038964E-04  0.5695229E-04
       8100.000  0.1990054E-04  0.4863926E-04  0.6250350E-06  0.4999122E-04  0.4897726E-04  0.7287932E-04  0.6034287E-04
       8400.000  0.2118676E-04  0.5110389E-04  0.6987039E-06  0.5351596E-04  0.5083296E-04  0.7527428E-04  0.6378220E-04
       8700.000  0.2250809E-04  0.5356938E-04  0.7791271E-06  0.5714327E-04  0.5263748E-04  0.7757443E-04  0.6726710E-04
       9000.000  0.2386429E-04  0.5603266E-04  0.8667497E-06  0.6086944E-04  0.5438962E-04  0.7978020E-04  0.7079447E-04
       9300.000  0.2525512E-04  0.5849080E-04  0.9620315E-06  0.6469056E-04  0.5608854E-04  0.8189252E-04  0.7436130E-04
       9600.000  0.2668033E-04  0.6094105E-04  0.1065446E-05  0.6860252E-04  0.5773369E-04  0.8391271E-04  0.7796467E-04
       9900.000  0.2813970E-04  0.6338084E-04  0.1177481E-05  0.7260109E-04  0.5932484E-04  0.8584244E-04  0.8160173E-04
      10200.000  0.2963297E-04  0.6580775E-04  0.1298634E-05  0.7668185E-04  0.6086197E-04  0.8768367E-04  0.8526970E-04
      10500.000  0.3115991E-04  0.6821952E-04  0.1429419E-05  0.8084030E-04  0.6234531E-04  0.8943861E-04  0.8896590E-04
      10800.000  0.3272026E-04  0.7061405E-04  0.1570357E-05  0.8507182E-04  0.6377529E-04  0.9110964E-04  0.9268771E-04
      11100.000  0.3877346E-04  0.8714711E-04  0.1843824E-05  0.1011559E-03  0.8478835E-04  0.1059962E-03  0.1050755E-03
      11400.000  0.5552153E-04  0.1381847E-03  0.2435532E-05  0.1459508E-03  0.1558458E-03  0.1508624E-03  0.1370774E-03
      11700.000  0.8715221E-04  0.2387379E-03  0.3489808E-05  0.2318482E-03  0.3019521E-03  0.2342247E-03  0.1940703E-03
      12000.000  0.1397313E-03  0.4084179E-03  0.5242708E-05  0.3775263E-03  0.5506778E-03  0.3664565E-03  0.2836417E-03
      12300.000  0.2208266E-03  0.6677537E-03  0.8061960E-05  0.6073661E-03  0.9230667E-03  0.5565477E-03  0.4147763E-03
      12600.000  0.3392967E-03  0.1035488E-02  0.1250707E-04  0.9507887E-03  0.1428628E-02  0.8099650E-03  0.5971858E-03
      12900.000  0.5051853E-03  0.1526637E-02  0.1941499E-04  0.1441104E-02  0.2064066E-02  0.1127673E-02  0.8407769E-03
      13200.000  0.7296508E-03  0.2151215E-02  0.3001514E-04  0.2113616E-02  0.2815080E-02  0.1506190E-02  0.1155221E-02
      13500.000  0.1024886E-02  0.2913586E-02  0.4607507E-04  0.3003049E-02  0.3660085E-02  0.1938432E-02  0.1549595E-02
      13800.000  0.1404006E-02  0.3812431E-02  0.7007385E-04  0.4140590E-02  0.4574487E-02  0.2414991E-02  0.2032090E-02
      14100.000  0.1880885E-02  0.4841240E-02  0.1053948E-03  0.5551046E-02  0.5534398E-02  0.2925505E-02  0.2609759E-02
      14400.000  0.2469962E-02  0.5989213E-02  0.1565234E-03  0.7250548E-02  0.6519166E-02  0.3459849E-02  0.3288334E-02
      14700.000  0.3212985E-02  0.7325364E-02  0.2302282E-03  0.9321095E-02  0.7627197E-02  0.4063924E-02  0.4109700E-02
      15000.000  0.4165201E-02  0.8926888E-02  0.3363526E-03  0.1187524E-01  0.8942617E-02  0.4780003E-02  0.5125484E-02
      15300.000  0.5362682E-02  0.1078328E-01  0.4872825E-03  0.1495517E-01  0.1042219E-01  0.5589943E-02  0.6352070E-02
      15600.000  0.6843336E-02  0.1287527E-01  0.6990017E-03  0.1858563E-01  0.1202376E-01  0.6474438E-02  0.7802657E-02
      15900.000  0.8646126E-02  0.1517650E-01  0.9915558E-03  0.2277077E-01  0.1370933E-01  0.7414598E-02  0.9486592E-02
      16200.000  0.1081030E-01  0.1765601E-01  0.1389352E-02  0.2749348E-01  0.1544738E-01  0.8393369E-02  0.1140896E-01
      16500.000  0.1337462E-01  0.2028082E-01  0.1921230E-02  0.3271710E-01  0.1721370E-01  0.9396457E-02  0.1357044E-01
      16800.000  0.1637680E-01  0.2301831E-01  0.2620259E-02  0.3838906E-01  0.1899111E-01  0.1041268E-01  0.1596741E-01
      17100.000  0.1985292E-01  0.2583815E-01  0.3523256E-02  0.4444588E-01  0.2076840E-01  0.1143388E-01  0.1859224E-01
      17400.000  0.2383718E-01  0.2871355E-01  0.4670038E-02  0.5081849E-01  0.2253895E-01  0.1245451E-01  0.2143375E-01
      17700.000  0.2836164E-01  0.3162196E-01  0.6102462E-02  0.5743722E-01  0.2429937E-01  0.1347113E-01  0.2447777E-01
      18000.000  0.3345625E-01  0.3454524E-01  0.7863306E-02  0.6423591E-01  0.2604846E-01  0.1448184E-01  0.2770781E-01
      18300.000  0.3929690E-01  0.3777668E-01  0.1000611E-01  0.7149974E-01  0.2814790E-01  0.1566374E-01  0.3127213E-01
      18600.000  0.4610845E-01  0.4155638E-01  0.1260449E-01  0.7961091E-01  0.3078946E-01  0.1712499E-01  0.3532869E-01
      18900.000  0.5398746E-01  0.4578685E-01  0.1573753E-01  0.8858684E-01  0.3377305E-01  0.1877784E-01  0.3986407E-01
      19200.000  0.6302785E-01  0.5037889E-01  0.1949112E-01  0.9838614E-01  0.3696370E-01  0.2055765E-01  0.4485781E-01
      19500.000  0.7331960E-01  0.5525212E-01  0.2395535E-01  0.1089272E+00  0.4027216E-01  0.2241754E-01  0.5028289E-01
      19800.000  0.8494775E-01  0.6033617E-01  0.2922138E-01  0.1201040E+00  0.4364166E-01  0.2432461E-01  0.5610670E-01
      20100.000  0.9799153E-01  0.6557144E-01  0.3537811E-01  0.1318007E+00  0.4703794E-01  0.2625677E-01  0.6229230E-01
      20400.000  0.1125237E+00  0.7090927E-01  0.4250883E-01  0.1439017E+00  0.5044154E-01  0.2819990E-01  0.6879986E-01
      20700.000  0.1286100E+00  0.7631140E-01  0.5068806E-01  0.1563005E+00  0.5384224E-01  0.3014549E-01  0.7558819E-01
      21000.000  0.1463086E+00  0.8174887E-01  0.5997880E-01  0.1689036E+00  0.5723532E-01  0.3208879E-01  0.8261606E-01
      21300.000  0.1656696E+00  0.8720064E-01  0.7043030E-01  0.1816337E+00  0.6061905E-01  0.3402741E-01  0.8984347E-01
      21600.000  0.1867339E+00  0.9265212E-01  0.8207653E-01  0.1944291E+00  0.6399329E-01  0.3596040E-01  0.9723260E-01
      21900.000  0.2101129E+00  0.9896209E-01  0.9499909E-01  0.2083044E+00  0.6832302E-01  0.3836796E-01  0.1052785E+00
      22200.000  0.2365613E+00  0.1066904E+00  0.1093968E+00  0.2244331E+00  0.7392294E-01  0.4145138E-01  0.1144391E+00
      22500.000  0.2662838E+00  0.1154404E+00  0.1254714E+00  0.2427079E+00  0.8015622E-01  0.4491379E-01  0.1246061E+00
      22800.000  0.2994493E+00  0.1249101E+00  0.1434153E+00  0.2628317E+00  0.8668957E-01  0.4858037E-01  0.1356696E+00
      23100.000  0.3361927E+00  0.1348706E+00  0.1633971E+00  0.2844433E+00  0.9335288E-01  0.5234996E-01  0.1475192E+00
      23400.000  0.3766149E+00  0.1451515E+00  0.1855511E+00  0.3071856E+00  0.1000632E+00  0.5616616E-01  0.1600455E+00
      23700.000  0.4207832E+00  0.1556300E+00  0.2099717E+00  0.3307415E+00  0.1067827E+00  0.5999903E-01  0.1731432E+00
      24000.000  0.4687304E+00  0.1662203E+00  0.2367102E+00  0.3548490E+00  0.1134955E+00  0.6383365E-01  0.1867125E+00
      24300.000  0.5204549E+00  0.1768648E+00  0.2657740E+00  0.3793032E+00  0.1201960E+00  0.6766328E-01  0.2006616E+00
      24600.000  0.5759198E+00  0.1875265E+00  0.2971287E+00  0.4039516E+00  0.1268832E+00  0.7148535E-01  0.2149080E+00
      24900.000  0.6350530E+00  0.1981829E+00  0.3307017E+00  0.4286858E+00  0.1335578E+00  0.7529931E-01  0.2293791E+00
      25200.000  0.6977476E+00  0.2088212E+00  0.3663865E+00  0.4534327E+00  0.1402209E+00  0.7910550E-01  0.2440127E+00
      25500.000  0.7624077E+00  0.2177223E+00  0.4038499E+00  0.4759220E+00  0.1450548E+00  0.8198771E-01  0.2576431E+00
      25800.000  0.8271294E+00  0.2240639E+00  0.4423029E+00  0.4938923E+00  0.1478601E+00  0.8375210E-01  0.2693376E+00
      26100.000  0.8914523E+00  0.2288557E+00  0.4809845E+00  0.5080944E+00  0.1499190E+00  0.8503504E-01  0.2794116E+00
      26400.000  0.9549998E+00  0.2327238E+00  0.5192579E+00  0.5195199E+00  0.1517073E+00  0.8611382E-01  0.2881499E+00
      26700.000  0.1017448E+01  0.2360469E+00  0.5566330E+00  0.5290213E+00  0.1533984E+00  0.8710678E-01  0.2958002E+00
      27000.000  0.1078516E+01  0.2390506E+00  0.5927814E+00  0.5384036E+00  0.1550548E+00  0.8806384E-01  0.3025727E+00
      27300.000  0.1138000E+01  0.2418680E+00  0.6280268E+00  0.5566523E+00  0.1566987E+00  0.8900595E-01  0.3086418E+00
      27600.000  0.1195916E+01  0.2445772E+00  0.6636727E+00  0.5898775E+00  0.1583382E+00  0.8994182E-01  0.3141508E+00
      27900.000  0.1252596E+01  0.2472236E+00  0.7014576E+00  0.6405175E+00  0.1599761E+00  0.9087509E-01  0.3192159E+00
      28200.000  0.1308694E+01  0.2498337E+00  0.7432671E+00  0.7095869E+00  0.1616133E+00  0.9180725E-01  0.3239306E+00
      28500.000  0.1365152E+01  0.2524227E+00  0.7910047E+00  0.7973127E+00  0.1632502E+00  0.9273892E-01  0.3283694E+00
      28800.000  0.1423156E+01  0.2549996E+00  0.8465185E+00  0.9033671E+00  0.1648870E+00  0.9367036E-01  0.3325918E+00
      29100.000  0.1483730E+01  0.2572681E+00  0.9107617E+00  0.1009766E+01  0.1662093E+00  0.9444259E-01  0.3364402E+00
      29400.000  0.1547600E+01  0.2591060E+00  0.9818184E+00  0.1103562E+01  0.1671984E+00  0.9503052E-01  0.3398050E+00
      29700.000  0.1615286E+01  0.2606993E+00  0.1057844E+01  0.1190686E+01  0.1680738E+00  0.9554441E-01  0.3427939E+00
      30000.000  0.1686971E+01  0.2621541E+00  0.1137694E+01  0.1275087E+01  0.1689104E+00  0.9602864E-01  0.3454914E+00
      30300.000  0.1762645E+01  0.2635306E+00  0.1220724E+01  0.1359182E+01  0.1697339E+00  0.9650104E-01  0.3479633E+00
      30600.000  0.1842220E+01  0.2648629E+00  0.1306733E+01  0.1444349E+01  0.1705529E+00  0.9696871E-01  0.3502610E+00
      30900.000  0.1925600E+01  0.2661703E+00  0.1395671E+01  0.1531295E+01  0.1713704E+00  0.9743449E-01  0.3524243E+00
      31200.000  0.2012696E+01  0.2674637E+00  0.1487533E+01  0.1620299E+01  0.1721874E+00  0.9789952E-01  0.3544840E+00
      31500.000  0.2103427E+01  0.2687491E+00  0.1582320E+01  0.1711364E+01  0.1730042E+00  0.9836426E-01  0.3564641E+00
      31800.000  0.2197720E+01  0.2700302E+00  0.1680009E+01  0.1804308E+01  0.1738209E+00  0.9882886E-01  0.3583828E+00
      32100.000  0.2295498E+01  0.2713087E+00  0.1780529E+01  0.1898807E+01  0.1746376E+00  0.9929342E-01  0.3602544E+00
      32400.000  0.2396671E+01  0.2725858E+00  0.1883749E+01  0.1994438E+01  0.1754543E+00  0.9975795E-01  0.3620898E+00
      32700.000  0.2500563E+01  0.2735546E+00  0.1986849E+01  0.2059302E+01  0.1759516E+00  0.1000607E+00  0.3636870E+00
      33000.000  0.2605108E+01  0.2740933E+00  0.2081653E+01  0.2083695E+01  0.1761163E+00  0.1001790E+00  0.3649054E+00
      33300.000  0.2707464E+01  0.2743925E+00  0.2164009E+01  0.2088058E+01  0.1761708E+00  0.1002252E+00  0.3658342E+00
      33600.000  0.2804810E+01  0.2745586E+00  0.2232909E+01  0.2082004E+01  0.1761888E+00  0.1002432E+00  0.3665418E+00
      33900.000  0.2894872E+01  0.2746508E+00  0.2288807E+01  0.2069940E+01  0.1761948E+00  0.1002502E+00  0.3670807E+00
      34200.000  0.2976082E+01  0.2747019E+00  0.2332758E+01  0.2053887E+01  0.1761968E+00  0.1002530E+00  0.3674910E+00
      34500.000  0.3047540E+01  0.2747303E+00  0.2366007E+01  0.2034802E+01  0.1761974E+00  0.1002540E+00  0.3678032E+00
      34800.000  0.3108903E+01  0.2747460E+00  0.2389799E+01  0.2013192E+01  0.1761976E+00  0.1002544E+00  0.3680408E+00
      35100.000  0.3160257E+01  0.2747548E+00  0.2405295E+01  0.1989376E+01  0.1761977E+00  0.1002546E+00  0.3682216E+00
      35400.000  0.3201989E+01  0.2747596E+00  0.2413550E+01  0.1963609E+01  0.1761977E+00  0.1002547E+00  0.3683591E+00
      35700.000  0.3234683E+01  0.2747623E+00  0.2415501E+01  0.1936127E+01  0.1761977E+00  0.1002547E+00  0.3684637E+00
      36000.000  0.3259039E+01  0.2747638E+00  0.2411984E+01  0.1907164E+01  0.1761977E+00  0.1002547E+00  0.3685433E+00
      36300.000  0.3275813E+01  0.2747646E+00  0.2403740E+01  0.1876953E+01  0.1761977E+00  0.1002547E+00  0.3686038E+00
      36600.000  0.3285769E+01  0.2747651E+00  0.2391424E+01  0.1845729E+01  0.1761977E+00  0.1002547E+00  0.3686498E+00
      36900.000  0.3289657E+01  0.2747653E+00  0.2375623E+01  0.1813718E+01  0.1761977E+00  0.1002547E+00  0.3686848E+00
      37200.000  0.3288189E+01  0.2747655E+00  0.2356857E+01  0.1781140E+01  0.1761977E+00  0.1002547E+00  0.3687115E+00
      37500.000  0.3282031E+01  0.2747655E+00  0.2335593E+01  0.1748201E+01  0.1761977E+00  0.1002547E+00  0.3687317E+00
      37800.000  0.3271799E+01  0.2747656E+00  0.2312246E+01  0.1715089E+01  0.1761977E+00  0.1002547E+00  0.3687471E+00
      38100.000  0.3258056E+01  0.2747656E+00  0.2287188E+01  0.1681980E+01  0.1761977E+00  0.1002547E+00  0.3687588E+00
      38400.000  0.3241312E+01  0.2747656E+00  0.2260753E+01  0.1649028E+01  0.1761977E+00  0.1002547E+00  0.3687677E+00
      38700.000  0.3222029E+01  0.2747656E+00  0.2233234E+01  0.1616369E+01  0.1761977E+00  0.1002547E+00  0.3687745E+00
      39000.000  0.3200620E+01  0.2747656E+00  0.2204897E+01  0.1584123E+01  0.1761977E+00  0.1002547E+00  0.3687797E+00
      39300.000  0.3177457E+01  0.2747656E+00  0.2175972E+01  0.1552391E+01  0.1761977E+00  0.1002547E+00  0.3687836E+00
      39600.000  0.3152870E+01  0.2747656E+00  0.2146666E+01  0.1521258E+01  0.1761977E+00  0.1002547E+00  0.3687866E+00
      39900.000  0.3127153E+01  0.2747656E+00  0.2117159E+01  0.1490794E+01  0.1761977E+00  0.1002547E+00  0.3687888E+00
      40200.000  0.3100565E+01  0.2747656E+00  0.2087607E+01  0.1461056E+01  0.1761977E+00  0.1002547E+00  0.3687906E+00
      40500.000  0.3073338E+01  0.2747656E+00  0.2058148E+01  0.1432088E+01  0.1761977E+00  0.1002547E+00  0.3687919E+00
      40800.000  0.3045672E+01  0.2747656E+00  0.2028899E+01  0.1403923E+01  0.1761977E+00  0.1002547E+00  0.3687929E+00
      41100.000  0.3017745E+01  0.2747656E+00  0.1999960E+01  0.1376583E+01  0.1761977E+00  0.1002547E+00  0.3687936E+00
      41400.000  0.2989709E+01  0.2747656E+00  0.1971416E+01  0.1350083E+01  0.1761977E+00  0.1002547E+00  0.3687942E+00
      41700.000  0.2961700E+01  0.2747656E+00  0.1943337E+01  0.1324432E+01  0.1761977E+00  0.1002547E+00  0.3687946E+00
      42000.000  0.2933831E+01  0.2747656E+00  0.1915784E+01  0.1299628E+01  0.1761977E+00  0.1002547E+00  0.3687950E+00
      42300.000  0.2906201E+01  0.2747656E+00  0.1888803E+01  0.1275669E+01  0.1761977E+00  0.1002547E+00  0.3687952E+00
      42600.000  0.2878895E+01  0.2747656E+00  0.1862433E+01  0.1252546E+01  0.1761977E+00  0.1002547E+00  0.3687954E+00
      42900.000  0.2851983E+01  0.2747656E+00  0.1836702E+01  0.1230246E+01  0.1761977E+00  0.1002547E+00  0.3687956E+00
      43200.000  0.2825523E+01  0.2747656E+00  0.1811634E+01  0.1208754E+01  0.1761977E+00  0.1002547E+00  0.3687957E+00
      43500.000  0.2799565E+01  0.2747656E+00  0.1787243E+01  0.1188051E+01  0.1761977E+00  0.1002547E+00  0.3687958E+00
      43800.000  0.2774148E+01  0.2747656E+00  0.1763540E+01  0.1168119E+01  0.1761977E+00  0.1002547E+00  0.3687958E+00
      44100.000  0.2749302E+01  0.2747656E+00  0.1740529E+01  0.1148935E+01  0.1761977E+00  0.1002547E+00  0.3687959E+00
      44400.000  0.2725053E+01  0.2747656E+00  0.1718210E+01  0.1130479E+01  0.1761977E+00  0.1002547E+00  0.3687959E+00
      44700.000  0.2701417E+01  0.2747656E+00  0.1696581E+01  0.1112727E+01  0.1761977E+00  0.1002547E+00  0.3687959E+00
      45000.000  0.2678408E+01  0.2747656E+00  0.1675637E+01  0.1095656E+01  0.1761977E+00  0.1002547E+00  0.3687960E+00
      45300.000  0.2656033E+01  0.2747656E+00  0.1655367E+01  0.1079242E+01  0.1761977E+00  0.1002547E+00  0.3687960E+00
      45600.000  0.2634295E+01  0.2747656E+00  0.1635763E+01  0.1063462E+01  0.1761977E+00  0.1002547E+00  0.3687960E+00
      45900.000  0.2613195E+01  0.2747656E+00  0.1616811E+01  0.1048292E+01  0.1761977E+00  0.1002547E+00  0.3687960E+00
      46200.000  0.2592730E+01  0.2747656E+00  0.1598497E+01  0.1033710E+01  0.1761977E+00  0.1002547E+00  0.3687960E+00
      46500.000  0.2572894E+01  0.2747656E+00  0.1580808E+01  0.1019693E+01  0.1761977E+00  0.1002547E+00  0.3687960E+00
      46800.000  0.2553679E+01  0.2747656E+00  0.1563727E+01  0.1006219E+01  0.1761977E+00  0.1002547E+00  0.3687960E+00
      47100.000  0.2535077E+01  0.2747656E+00  0.1547238E+01  0.9932654E+00  0.1761977E+00  0.1002547E+00  0.3687960E+00
      47400.000  0.2517076E+01  0.2747656E+00  0.1531324E+01  0.9808123E+00  0.1761977E+00  0.1002547E+00  0.3687960E+00
      47700.000  0.2499665E+01  0.2747656E+00  0.1515968E+01  0.9688390E+00  0.1761977E+00  0.1002547E+00  0.3687960E+00
      48000.000  0.2482830E+01  0.2747656E+00  0.1501153E+01  0.9573258E+00  0.1761977E+00  0.1002547E+00  0.3687960E+00
      48300.000  0.2466557E+01  0.2747656E+00  0.1486862E+01  0.9462536E+00  0.1761977E+00  0.1002547E+00  0.3687960E+00
      48600.000  0.2450833E+01  0.2747656E+00  0.1473077E+01  0.9356040E+00  0.1761977E+00  0.1002547E+00  0.3687960E+00
      48900.000  0.2435642E+01  0.2747656E+00  0.1459782E+01  0.9253595E+00  0.1761977E+00  0.1002547E+00  0.3687960E+00
